# energy, adjoint incoh cs
0.001 0.0852609950388
0.001011642815 0.0870301054584
0.00102723705647 0.0894168857689
0.00104283129794 0.0918223163962
0.00105842553941 0.0942432555356
0.00107401978088 0.0966832700536
0.00108961402235 0.0991406567259
0.00110520826382 0.101613258707
0.00112080250528 0.104102174468
0.00113639674675 0.106605458645
0.00115199098822 0.109117179596
0.00116758522969 0.111654980066
0.00118317947116 0.114202537295
0.00119877371263 0.116756052327
0.0012143679541 0.119321802197
0.00122996219557 0.121900702909
0.00124555643703 0.124485151893
0.0012611506785 0.127082357374
0.00127674491997 0.129692200486
0.00129233916144 0.132305100734
0.00130793340291 0.134931131005
0.00132352764438 0.137562150986
0.00135471612732 0.142845722826
0.00138590461025 0.148155541547
0.00141709309319 0.153492373553
0.00144828157613 0.158855695166
0.0014638758176 0.161539788098
0.00147947005907 0.164215039233
0.001510658542 0.16959528111
0.00154184702494 0.174987256522
0.00157303550788 0.180370483056
0.00158862974935 0.183060787972
0.00159252830972 0.18373323165
0.00159350294981 0.18390134467
0.0015944775899 0.18406945853
0.00159545222999 0.184237573229
0.00159642687008 0.18440568877
0.00159740151017 0.18457380515
0.00159837615027 0.18474192237
0.00159935079036 0.184910040431
0.00160032543045 0.185078159331
0.00160130007054 0.185246279072
0.00160227471063 0.185414399653
0.00160324935073 0.185582521075
0.00160422399082 0.185750643336
0.00160519863091 0.185918766438
0.001606173271 0.18608689038
0.00160714791109 0.186255015162
0.00160812255118 0.186423140785
0.00160909719128 0.186591267248
0.00161007183137 0.186759394551
0.00161104647146 0.186927522695
0.00161202111155 0.187082865373
0.00161299575164 0.187250495019
0.00161397039174 0.187431186548
0.00161494503183 0.187598768822
0.00161591967192 0.187766351933
0.00161689431201 0.187933935881
0.0016178689521 0.188101450706
0.00161884359219 0.188268956661
0.00161981823229 0.188436463451
0.00162079287238 0.188603971078
0.00162176751247 0.188771479542
0.00162274215256 0.188938988842
0.00162371679265 0.189106498979
0.00162469143274 0.189274009952
0.00162566607284 0.189441523452
0.00162664071293 0.189609064689
0.00162761535302 0.189776606762
0.00162858999311 0.189944149672
0.0016295646332 0.190111693419
0.0016305392733 0.190279398353
0.00163151391339 0.190447144194
0.00163248855348 0.190614890871
0.00163346319357 0.190782638386
0.00163443783366 0.190950283728
0.00163541247375 0.191117174282
0.00163638711385 0.191284032184
0.00163736175394 0.191450890917
0.00163833639403 0.191617750481
0.00163931103412 0.191784611868
0.00164028567421 0.191951475432
0.00164126031431 0.192118339825
0.0016422349544 0.19228520505
0.00164320959449 0.192452071106
0.00164418423458 0.192618937992
0.00164515887467 0.192785805709
0.00164613351476 0.192952674257
0.00164710815486 0.193119543635
0.00164808279495 0.193286458537
0.00164905743504 0.193453461805
0.00165003207513 0.193620465903
0.00165100671522 0.193787470832
0.00165198135532 0.193954507258
0.00165295599541 0.194121953928
0.0016539306355 0.19428940143
0.00165490527559 0.194456849764
0.00165587991568 0.19462429893
0.00165685455577 0.194791748928
0.00165782919587 0.194959199758
0.00165880383596 0.19512665142
0.00165977847605 0.195294103914
0.00166075311614 0.195461557241
0.00166172775623 0.195629011399
0.00166270239633 0.195796466389
0.00166367703642 0.195963922212
0.00166465167651 0.196131378866
0.0016656263166 0.196298836353
0.00166660095669 0.196466294672
0.00166757559678 0.196633753823
0.00166855023688 0.196801213806
0.00166952487697 0.196968674622
0.00167049951706 0.197136136269
0.00167147415715 0.197303554563
0.00167244879724 0.197470707507
0.00167342343733 0.197637861281
0.00167439807743 0.197805015884
0.00167537271752 0.197972171318
0.00167634735761 0.198139327582
0.0016773219977 0.198306484676
0.00167829663779 0.1984736426
0.00167927127789 0.198640801354
0.00168024591798 0.198807960938
0.00168122055807 0.198975121352
0.00168219519816 0.199142282596
0.00168316983825 0.19930944467
0.00168414447834 0.199476971388
0.00168511911844 0.199644524023
0.00168609375853 0.199812077489
0.00168706839862 0.199979631786
0.00168804303871 0.200147186913
0.0016890176788 0.200314742872
0.0016899923189 0.200482299661
0.00169096695899 0.200649857281
0.00169194159908 0.200817415731
0.00169291623917 0.200984975013
0.00169389087926 0.201152535125
0.00169486551935 0.201320096069
0.00169584015945 0.201487657843
0.00169681479954 0.20165523627
0.00169778943963 0.201822828263
0.00169876407972 0.201990421088
0.00169973871981 0.202158014743
0.00170071335991 0.20232560923
0.001701688 0.202493204547
0.00170266264009 0.202660800695
0.00170363728018 0.202828397674
0.00170461192027 0.202995995485
0.00170558656036 0.203163594126
0.00170656120046 0.203331142535
0.00170753584055 0.203498583062
0.00170851048064 0.203666024419
0.00170948512073 0.203833466606
0.00171045976082 0.204000909623
0.00171143440092 0.204168353469
0.00171240904101 0.204335798146
0.0017133836811 0.204502933756
0.00171435832119 0.204669229055
0.00171533296128 0.204833873429
0.00171630760137 0.205000920337
0.00171728224147 0.205167976223
0.00171825688156 0.205334873307
0.00171923152165 0.20550178642
0.00172020616174 0.205668594717
0.00172118080183 0.205835426897
0.00172215544192 0.206002308218
0.00172313008202 0.206169215916
0.00172410472211 0.206336153287
0.0017250793622 0.206503039835
0.00172605400229 0.206669797082
0.00172702864238 0.206833223968
0.00172800328248 0.206999373964
0.00172897792257 0.207165524781
0.00172995256266 0.207331642186
0.00173092720275 0.207497437843
0.00173190184284 0.207663234318
0.00173287648293 0.207829031612
0.00173385112303 0.207994829725
0.00173482576312 0.20816083608
0.00173580040321 0.208327077802
0.0017367750433 0.208493320343
0.00173774968339 0.208659563704
0.00173872432349 0.208825807883
0.00173969896358 0.208992052883
0.00174067360367 0.209158298702
0.00174164824376 0.20932454534
0.00174262288385 0.209490792798
0.00174359752394 0.209657041075
0.00174457216404 0.209823290172
0.00174554680413 0.209989540088
0.00174652144422 0.210155790824
0.00174749608431 0.210322042379
0.0017484707244 0.210488294754
0.0017494453645 0.210654547948
0.00175042000459 0.210820801962
0.00175139464468 0.210987056796
0.00175236928477 0.211153312449
0.00175334392486 0.211319568921
0.00175431856495 0.211485826214
0.00175529320505 0.21165216729
0.00175626784514 0.211818715886
0.00175724248523 0.211985265302
0.00175821712532 0.212151815539
0.00175919176541 0.212318366595
0.00176016640551 0.212484918471
0.0017611410456 0.212651471167
0.00176211568569 0.212824316678
0.00176309032578 0.212990542874
0.00176406496587 0.213156752547
0.00176503960596 0.213316764182
0.00176601424606 0.213482698531
0.00176698888615 0.213648635122
0.00176796352624 0.213814599628
0.00176893816633 0.213980564949
0.00176991280642 0.214146531086
0.00177088744651 0.214312498039
0.00177186208661 0.214478465808
0.0017728367267 0.214644434392
0.00177381136679 0.214810403791
0.00177478600688 0.214976374007
0.00177576064697 0.215142345038
0.00177673528707 0.215308316884
0.00177770992716 0.215474289547
0.00177868456725 0.215640263025
0.00177965920734 0.215806237319
0.00178063384743 0.215972212428
0.00178160848752 0.216138188354
0.00178258312762 0.216304336517
0.00178355776771 0.216470662278
0.0017845324078 0.216636988855
0.00178550704789 0.216803316249
0.00178648168798 0.216969644459
0.00178745632808 0.217135973486
0.00178843096817 0.217302303329
0.00178940560826 0.217468633988
0.00179038024835 0.217634965464
0.00179135488844 0.217801297756
0.00179232952853 0.217967630865
0.00179330416863 0.21813396479
0.00179427880872 0.218300299531
0.00179525344881 0.218466635089
0.0017962280889 0.218632711526
0.00179720272899 0.21879873368
0.00179817736909 0.218964756649
0.00179915200918 0.219130780431
0.00180012664927 0.219296805027
0.00180110128936 0.219462830438
0.00180207592945 0.219628856663
0.00180305056954 0.219794883702
0.00180402520964 0.219960911555
0.00180499984973 0.220126940222
0.00180597448982 0.220292969703
0.00180694912991 0.220458999999
0.00180792377 0.220625031108
0.0018088984101 0.220791063032
0.00180987305019 0.22095709577
0.00181084769028 0.221123129323
0.00181182233037 0.221289164689
0.00181279697046 0.221455202206
0.00181377161055 0.221621008432
0.00181474625065 0.221786693104
0.00181572089074 0.221951736305
0.00181669553083 0.222116600892
0.00181767017092 0.222281602671
0.00181864481101 0.222446614214
0.0018196194511 0.222611626563
0.0018205940912 0.222776260568
0.00182156873129 0.222940701282
0.00182254337138 0.223105202251
0.00182351801147 0.223269704023
0.00182449265156 0.223434206599
0.00182546729166 0.223598634438
0.00182644193175 0.223762423072
0.00182741657184 0.223926212504
0.00182839121193 0.224090002734
0.00182936585202 0.224253793763
0.00183034049211 0.22441758559
0.00183131513221 0.224581378216
0.0018322897723 0.224745171639
0.00183326441239 0.224908965861
0.00183423905248 0.225072760881
0.00183521369257 0.225220252298
0.00183618833267 0.22538439671
0.00183716297276 0.225548541923
0.00183813761285 0.225712688477
0.00183911225294 0.225876837218
0.00184008689303 0.226040986759
0.00184106153312 0.226205137102
0.00184203617322 0.226369288245
0.00184301081331 0.226533440188
0.0018439854534 0.226697592933
0.00184496009349 0.226859900747
0.00184593473358 0.227023541553
0.00184690937368 0.227187183157
0.00184788401377 0.227350825557
0.00184885865386 0.22751443617
0.00184983329395 0.227677833834
0.00185080793404 0.227841232293
0.00185178257413 0.228004631547
0.00185275721423 0.228168031598
0.00185373185432 0.228331432443
0.00185470649441 0.228494834085
0.0018556811345 0.228658263095
0.00185665577459 0.22882170757
0.00185763041469 0.228984914423
0.00185860505478 0.229148103343
0.00185957969487 0.229311293057
0.00186055433496 0.229474483565
0.00186152897505 0.229637674868
0.00186250361514 0.229800901584
0.00186347825524 0.229963629055
0.00186445289533 0.23012448771
0.00186542753542 0.230287216088
0.00186640217551 0.230449938485
0.0018673768156 0.230612664738
0.00186835145569 0.230775414969
0.00186932609579 0.230938165991
0.00187030073588 0.231100917803
0.00187127537597 0.231263670406
0.00187225001606 0.231426423799
0.00187322465615 0.231589177982
0.00187419929625 0.231751932956
0.00187517393634 0.23191468872
0.00187614857643 0.232077445274
0.00187712321652 0.232240202619
0.00187809785661 0.232402960754
0.0018790724967 0.23256571968
0.0018800471368 0.232728479396
0.00188102177689 0.232891239902
0.00188199641698 0.233054011732
0.00188297105707 0.233217947178
0.00188394569716 0.233380588249
0.00188492033726 0.233542652404
0.00188589497735 0.233705239539
0.00188686961744 0.233867114746
0.00188784425753 0.23402959111
0.00188881889762 0.23419194834
0.00188979353771 0.234354218695
0.00189076817781 0.234516408504
0.0018917428179 0.234678540732
0.00189271745799 0.234840608061
0.00189369209808 0.235002526303
0.00189466673817 0.235164469269
0.00189564137827 0.235326413021
0.00189661601836 0.235488362581
0.00189759065845 0.235650273913
0.00189856529854 0.23581218603
0.00189953993863 0.23597409902
0.00190051457872 0.2361360134
0.00190148921882 0.236297948726
0.00190246385891 0.236459927897
0.001903438499 0.236621862346
0.00190441313909 0.236783743432
0.00190538777918 0.236945625301
0.00190636241928 0.237107507953
0.00190733705937 0.237270183134
0.00190831169946 0.237431669875
0.00190928633955 0.23759316074
0.00191026097964 0.237767856007
0.00191123561973 0.237930538325
0.00191221025983 0.238093221432
0.00191318489992 0.238255905328
0.00191415954001 0.238417937428
0.0019151341801 0.238579912042
0.00191610882019 0.238741887442
0.00191708346028 0.238903863625
0.00191805810038 0.239065840593
0.00191903274047 0.239227818345
0.00192000738056 0.239389796882
0.00192098202065 0.23955152319
0.00192195666074 0.239712092491
0.00192293130084 0.239872662567
0.00192390594093 0.240033233418
0.00192488058102 0.240193805043
0.00192585522111 0.240354377444
0.0019268298612 0.240514838373
0.00192780450129 0.240675086683
0.00192877914139 0.240835335767
0.00192975378148 0.240995585624
0.00193072842157 0.241155836254
0.00193170306166 0.241316087657
0.00193267770175 0.241476339833
0.00193365234185 0.241636592783
0.00193462698194 0.241796846506
0.00193560162203 0.241957101003
0.00193657626212 0.242117356272
0.00193755090221 0.242277612316
0.0019385255423 0.242437869132
0.0019395001824 0.242598126722
0.00194047482249 0.242758385085
0.00194144946258 0.242918644221
0.00194242410267 0.243078904131
0.00194339874276 0.243239164814
0.00194437338286 0.243399426271
0.00194534802295 0.243559688501
0.00194632266304 0.243719951504
0.00194729730313 0.243880215281
0.00194827194322 0.244040479832
0.00194924658331 0.244200745156
0.00195022122341 0.244361011253
0.0019511958635 0.244521278124
0.00195217050359 0.244681545768
0.00195314514368 0.244848183315
0.00195411978377 0.245008511063
0.00195509442387 0.245168839584
0.00195606906396 0.245329902833
0.00195704370405 0.245490234639
0.00195801834414 0.245650567218
0.00195899298423 0.245810900571
0.00195996762432 0.245971234698
0.00196094226442 0.246131569599
0.00196191690451 0.246291977164
0.0019628915446 0.246452487291
0.00196386618469 0.246613035321
0.00196484082478 0.246773584126
0.00196581546487 0.246933984767
0.00196679010497 0.247094446047
0.00196776474506 0.247254858138
0.00196873938515 0.247414818215
0.00196971402524 0.247574779063
0.00197068866533 0.247734740682
0.00197166330543 0.24789466176
0.00197263794552 0.248054431262
0.00197361258561 0.248214201533
0.0019745872257 0.248373972573
0.00197556186579 0.248533744383
0.00197653650588 0.248693516962
0.00197751114598 0.248853290309
0.00197848578607 0.249013064426
0.00197946042616 0.249172839312
0.00198043506625 0.249332614968
0.00198140970634 0.249492441909
0.00198238434644 0.249637730929
0.00198335898653 0.24979774451
0.00198433362662 0.249957759858
0.00198530826671 0.250117777285
0.0019862829068 0.250277795482
0.00198725754689 0.250437814448
0.00198823218699 0.250597834184
0.00198920682708 0.25075785469
0.00199018146717 0.250917875965
0.00199115610726 0.251077898009
0.00199213074735 0.251237920823
0.00199310538745 0.251397944407
0.00199408002754 0.25155796876
0.00199505466763 0.251718067701
0.00199602930772 0.251877230373
0.00199700394781 0.25203637419
0.0019979785879 0.252195518769
0.001998953228 0.252354664111
0.00199992786809 0.252513810214
0.00200090250818 0.25267295708
0.00200187714827 0.252832104708
0.00200285178836 0.252997556818
0.00200333910841 0.253076666259
0.00200382642846 0.253155775889
0.00200480106855 0.253313995718
0.00200577570864 0.253472216303
0.00200675034873 0.253630437645
0.00200772498882 0.253788659744
0.00200869962891 0.2539468826
0.00200967426901 0.254105106213
0.0020106489091 0.254263330582
0.00201162354919 0.254421555709
0.00201259818928 0.254579676992
0.00201357282937 0.254737779126
0.00201454746946 0.254895881718
0.00201552210956 0.255053861632
0.00201649674965 0.255211842302
0.00201747138974 0.255371363101
0.00201844602983 0.255529400746
0.00201942066992 0.25568486285
0.00202039531002 0.255842611609
0.00202136995011 0.255998599895
0.0020223445902 0.256164803774
0.00202331923029 0.256322761913
0.00202429387038 0.256480720806
0.00202526851047 0.256638680452
0.00202624315057 0.256796640853
0.00202721779066 0.256954602008
0.00202819243075 0.257112563917
0.00202916707084 0.257270526581
0.00203014171093 0.257428489998
0.00203111635103 0.257586454169
0.00203209099112 0.257744419094
0.00203306563121 0.257902288988
0.0020340402713 0.258059218376
0.00203501491139 0.258216131033
0.00203598955148 0.258373044439
0.00203696419158 0.258529958594
0.00203793883167 0.258686873498
0.00203891347176 0.258843789151
0.00203988811185 0.259000705553
0.00204086275194 0.259156260302
0.00204183739204 0.259311677491
0.00204281203213 0.259467095418
0.00204378667222 0.259622514083
0.00204476131231 0.259777933486
0.0020457359524 0.259933353628
0.00204671059249 0.260088774508
0.00204768523259 0.260244196126
0.00204865987268 0.260399618483
0.00204963451277 0.260560061304
0.00205060915286 0.260716500635
0.00205158379295 0.260872944272
0.00205255843305 0.26102940518
0.00205353307314 0.261185866833
0.00205450771323 0.26134232923
0.00205548235332 0.261498792371
0.00205645699341 0.261655256256
0.0020574316335 0.261811720885
0.0020584062736 0.261968186258
0.00205938091369 0.262124652376
0.00206035555378 0.262281119238
0.00206133019387 0.262437586844
0.00206230483396 0.262594055194
0.00206327947405 0.262750524288
0.00206425411415 0.262906994127
0.00206522875424 0.26306346471
0.00206620339433 0.263219936037
0.00206717803442 0.263376408109
0.00206815267451 0.263532911763
0.00206912731461 0.263689409687
0.0020701019547 0.263845891415
0.00207107659479 0.264002036426
0.00207205123488 0.264157734154
0.00207302587497 0.264309921857
0.00207400051506 0.264465531431
0.00207497515516 0.264624831774
0.00207594979525 0.264780532461
0.00207692443534 0.264936233887
0.00207789907543 0.265091936052
0.00207887371552 0.265242411242
0.00207984835562 0.265397724618
0.00208082299571 0.265552697101
0.0020817976358 0.26570779753
0.00208277227589 0.265863434052
0.00208374691598 0.266018520931
0.00208472155607 0.266176432027
0.00208569619617 0.266330979944
0.00208667083626 0.266485531881
0.00208764547635 0.266640084762
0.00208862011644 0.266795242926
0.00208959475653 0.266949878269
0.00209056939663 0.267104423907
0.00209154403672 0.26725895742
0.00209251867681 0.267407348478
0.0020934933169 0.267561664964
0.00209446795699 0.267715982181
0.00209544259708 0.26787030013
0.00209641723718 0.268024618809
0.00209739187727 0.268178938219
0.00209836651736 0.268333258361
0.00209934115745 0.268487581091
0.00210031579754 0.268641913247
0.00210129043764 0.268796246134
0.00210226507773 0.268950742566
0.00210323971782 0.269105277897
0.00210421435791 0.269259852247
0.002105188998 0.269414573708
0.00210616363809 0.26956925671
0.00210713827819 0.269731436164
0.00210811291828 0.2698859266
0.00210908755837 0.270037623248
0.00211006219846 0.270192224333
0.00211103683855 0.270354208651
0.00211201147864 0.270508389843
0.00211298611874 0.270662562238
0.00211396075883 0.270816586881
0.00211493539892 0.270964144975
0.00211591003901 0.271118306906
0.0021168846791 0.271272469565
0.0021178593192 0.271426424781
0.00211883395929 0.271580343429
0.00211980859938 0.271734262805
0.00212078323947 0.271888182907
0.00212175787956 0.272042103737
0.00212273251965 0.272196025293
0.00212370715975 0.272349947577
0.00212468179984 0.272503820377
0.00212565643993 0.272657808481
0.00212663108002 0.272811834522
0.00212760572011 0.27296586129
0.00212858036021 0.273119924751
0.0021295550003 0.273274033148
0.00213052964039 0.273428142272
0.00213150428048 0.273582252123
0.00213247892057 0.273739633881
0.00213345356066 0.273893426412
0.00213442820076 0.274047240802
0.00213540284085 0.27420105592
0.00213637748094 0.274351605469
0.00213735212103 0.274505475421
0.00213832676112 0.274659346099
0.00213930140122 0.274812997591
0.00214027604131 0.274966624189
0.0021412506814 0.275120251511
0.00214222532149 0.275273879557
0.00214319996158 0.275432331634
0.00214417460167 0.275585748574
0.00214514924177 0.275739166237
0.00214612388186 0.275892584623
0.00214709852195 0.276045780284
0.00214807316204 0.276198515828
0.00214904780213 0.27635125209
0.00215002244223 0.276503798587
0.00215099708232 0.276656290395
0.00215197172241 0.276808715932
0.0021529463625 0.276961142187
0.00215392100259 0.277113569159
0.00215489564268 0.277265996847
0.00215587028278 0.277418401528
0.00215684492287 0.277570803387
0.00215781956296 0.277723205962
0.00215879420305 0.277875609255
0.00215976884314 0.278028013265
0.00216074348323 0.278180457108
0.00216171812333 0.278332429822
0.00216269276342 0.278484391503
0.00216366740351 0.278636353896
0.0021646420436 0.278792427457
0.00216561668369 0.278945004497
0.00216659132379 0.279097218562
0.00216756596388 0.279249433341
0.00216854060397 0.279400799374
0.00216951524406 0.279552876224
0.00217048988415 0.279703955472
0.00217146452424 0.279855769318
