# energy, two eff, two rate, three-lin eff, three-lin rate, three-inv eff, three-inv rate
0.001 0.666200326438 494107.890074 1.0 509017.475728 0.998582013541 441076.679104
0.010999 0.651164607901 478146.285743 0.999660115561 502368.410336 0.984019522947 508045.161142
0.020998 0.638235406747 493844.34787 0.999050901643 498519.525716 0.968326054749 499301.100549
0.030997 0.62551996347 473760.816698 0.997745096083 505617.443864 0.954745083063 489689.593858
0.040996 0.612021322823 468680.782687 0.996144919163 497114.479751 0.940459508516 482451.050986
0.050995 0.600380641327 479958.987879 0.993571591801 486248.759541 0.926200355661 484052.357882
0.060994 0.585617240572 470743.303 0.989520972897 488880.237685 0.912533649678 472449.111772
0.070993 0.572754088032 448233.432114 0.985192555885 476315.308328 0.898480669188 443895.712177
0.080992 0.559496900387 425222.353679 0.979172990492 470075.381446 0.887051706244 463841.35431
0.090991 0.545407937867 419302.931909 0.971420800062 456310.808473 0.872250231146 468053.167165
0.10099 0.530160850802 451938.323618 0.963186993123 490253.38442 0.860437102048 446237.682541
0.110989 0.516924094866 452461.930796 0.951664937809 412403.457488 0.847637211274 400373.043502
0.120988 0.501019574835 413154.988874 0.937382827147 420588.701283 0.834264929171 453850.415512
0.130987 0.484669891337 453702.153252 0.923207592459 486909.763377 0.822909809085 398770.120079
0.140986 0.467860334333 427836.968596 0.90327708928 479494.246829 0.812123377784 452572.755455
0.150985 0.450413930402 435794.48283 0.880855486849 404430.867969 0.803141891078 410876.767455
0.160984 0.432436172421 431051.106788 0.854073074492 471956.30501 0.793505947327 448315.837742
0.170983 0.40788523741 425836.254781 0.822909809085 467943.507224 0.785521271916 457412.567355
0.180982 0.387310169603 430995.739679 0.782668586814 480217.26138 0.778361548939 446358.778764
0.190981 0.364309342349 425869.115152 0.737006574099 474752.878136 0.770885207484 460449.547982
0.20098 0.33415982196 405617.109341 0.684027279008 418009.168826 0.764566911073 412199.189617
0.210979 0.302702833601 407182.750061 0.61724965897 418182.96023 0.763521974162 418415.324423
0.220978 0.264007582298 396705.896151 0.540546384285 441255.794087 0.764052841895 434826.294613
0.230977 0.216547240863 362958.110539 0.443905838693 408319.614957 0.76850364655 404462.067795
0.240976 0.156164597486 308752.5065 0.317644853995 345169.296808 0.775638738501 429658.418656
0.250975 0.0884528360633 250058.664733 0.178938251988 333248.901566 0.799833634604 444713.236947
0.260974 0.0907288703802 238908.09711 0.182913668407 297431.453543 0.797308287222 423222.900411
0.270973 0.092417512749 243749.022953 0.186913791621 309827.634858 0.796742914964 448760.487973
0.280972 0.0945842031139 248405.322619 0.191126018941 327485.555451 0.792751084087 445825.498647
0.290971 0.0970044069102 253666.773513 0.195957398861 294504.732167 0.791032851594 447829.986419
0.30097 0.0987351045753 259214.551549 0.200866538246 340708.645363 0.791258179631 449440.436849
0.310969 0.100921718051 263118.525238 0.204758170363 311137.915201 0.788519161016 408343.46654
0.320968 0.103082262738 257347.208869 0.209512276372 330485.772571 0.790288929633 399435.84015
0.330967 0.105499699326 271988.804782 0.213144174983 347632.762635 0.788320247217 432499.675185
0.340966 0.107492206815 271297.40488 0.219201623846 346271.249268 0.787991016902 438837.092753
0.350965 0.109753340343 260182.387413 0.22354761117 336742.314458 0.785410219758 429845.117348
0.360964 0.112062270763 267714.127056 0.228783739882 358740.479398 0.787991016902 445338.880023
0.370963 0.114597681918 282709.527915 0.231448800054 364886.127068 0.785243700382 451536.447568
0.380962 0.117012164585 286639.690501 0.237372382673 360151.606483 0.783852635704 445127.144951
0.390961 0.119638118619 288309.927893 0.241311576682 366197.065048 0.785891672692 451204.685132
0.40096 0.121335074087 296562.48608 0.244946748577 373124.858776 0.783097620949 453313.302819
0.410959 0.124268678825 296531.665222 0.251126932108 375836.722698 0.786466484731 458097.493207
0.420958 0.125708998753 303158.941637 0.256668899686 378169.123295 0.781488109658 459825.116866
0.430957 0.128299872727 303377.780671 0.261641065088 374923.594965 0.78099373643 447417.24341
0.440956 0.130294347961 299860.875782 0.265571097366 372072.294244 0.782038147821 459201.874336
0.450955 0.131956934535 305948.79194 0.26985673306 379643.392792 0.782166601486 452972.565503
0.460954 0.135623379301 308476.154403 0.273253907531 389026.428507 0.78177525525 462338.154794
0.470953 0.137232379706 314382.362884 0.278487146426 387697.728611 0.783244826668 457473.433234
0.480952 0.139719443358 312664.29713 0.281931569569 387011.956456 0.78170803205 462247.966929
0.490951 0.141216808754 313002.622345 0.286856795351 388853.669413 0.783116018638 458072.478108
0.50095 0.143722971099 310766.531522 0.292796617613 396100.852018 0.781298831177 465477.790417
0.510949 0.14662541605 319659.298675 0.295441922027 389678.450318 0.780932746072 439145.393286
0.520948 0.148468179557 319584.768021 0.299323230177 382814.91866 0.78170803205 440266.912151
0.530947 0.150631220128 312444.428553 0.304388058248 382573.289308 0.779064966228 434787.981067
0.540946 0.152681545992 319171.826643 0.31018909127 390046.264652 0.782227784731 420118.554192
0.550945 0.155443877765 305682.33497 0.312246299881 371487.685288 0.782680838408 427829.54972
0.560944 0.15731804202 317752.710248 0.318224055193 402209.016539 0.781024235182 438208.053292
0.570943 0.15907532694 323266.901687 0.322073638917 393570.459395 0.781860828772 445652.59892
0.580942 0.161622430607 316308.463617 0.325503880006 402657.307211 0.782233903582 443699.427591
0.590941 0.164328005272 317236.716014 0.331834547295 411280.46628 0.781524754797 378713.406783
0.60094 0.166011750312 301404.584409 0.335291435316 362485.707742 0.781787478892 427096.787333
0.610939 0.168196978846 331147.737716 0.339476730568 403766.2869 0.783103753416 433423.924837
0.620938 0.171061522276 332054.033642 0.344703968232 404597.843073 0.781042535576 439566.501885
0.630937 0.172880570644 337483.364419 0.345938167012 414064.946424 0.782215547316 439508.465216
0.640936 0.174604172341 336417.390412 0.35202343068 403103.886393 0.782240022529 434325.596326
0.650935 0.177679225034 337179.505731 0.355093460599 390002.017747 0.784541396327 426708.337403
0.660934 0.179529990485 337751.050262 0.3590122854 400973.585844 0.782748229032 413113.888643
0.670933 0.181481286557 323054.764366 0.361750001809 398395.136778 0.780067709877 393508.795138
0.680932 0.183837722765 308106.567469 0.367206950493 395050.639862 0.781793590856 447239.291933
0.690931 0.186297449961 348790.547912 0.370970793469 406060.060391 0.782282857836 441503.360509
0.70093 0.188051932422 342660.697363 0.374717088598 408733.835524 0.780536540818 434943.530917
0.710929 0.189529625376 343690.893999 0.378352200496 420804.326125 0.781958650027 436753.802836
0.720928 0.191050068491 345814.741161 0.38261109113 403735.194321 0.780475621844 438687.004761
0.730927 0.193360390897 340240.178852 0.386917544002 410032.456106 0.779812221217 438831.123992
0.740926 0.196142658478 349994.32573 0.392601811465 398582.540233 0.783373677078 463555.302096
0.750925 0.199408156591 362801.447641 0.395130412793 432342.748528 0.78099983599 440270.609291
0.760924 0.199913637309 361984.227124 0.397175289342 417817.623971 0.782044263705 450868.563173
0.770923 0.201639734319 358212.279624 0.399303614496 404923.99778 0.782974991779 433931.972592
0.780922 0.205598868384 353097.205818 0.406983842741 419002.598347 0.784467542655 434831.704129
0.790921 0.207257751958 353545.439603 0.409617826568 427417.987348 0.781543078654 445289.709287
0.80092 0.20903927639 361096.987202 0.412094138785 396865.050115 0.784282969295 441380.2393
0.810919 0.210932193737 333963.470516 0.416056450539 412605.89844 0.781732475512 455873.868821
0.820918 0.212462633134 363201.693087 0.421576273687 421683.03075 0.782742102132 447139.167042
0.830917 0.214669666317 360701.054333 0.422566754983 415260.35551 0.785984327473 445630.818333
0.840916 0.216215281231 365896.774689 0.425624284419 425186.575864 0.782613459386 450925.76068
0.850915 0.219327104444 360669.72735 0.430409276181 436561.055831 0.784153819613 446095.774947
0.860914 0.219959571431 376896.160682 0.4348449995 420717.796457 0.78485542963 455250.907125
0.870913 0.222315594772 376231.161774 0.438290841036 432593.350468 0.784799993722 441827.055258
0.880912 0.225127872632 354260.91613 0.441770261793 426099.279829 0.783993978926 462872.870376
0.890911 0.226577032792 371906.347398 0.443140626246 432700.011245 0.782460368382 453020.022595
0.90091 0.229193787932 379135.15722 0.449024494286 430072.545129 0.784479850635 463877.776954
0.910909 0.230489629119 376480.387906 0.451652823508 430991.753796 0.785052598524 449634.122548
0.920908 0.231859863898 371921.517301 0.456433429184 417210.83834 0.783656069024 438210.342435
0.930907 0.233461581562 375838.069798 0.456664794341 417587.170231 0.783447324919 428060.091444
0.940906 0.236546422235 369065.181831 0.460789147494 421139.806474 0.782925950864 431387.601539
0.950905 0.237415776753 364411.544944 0.463499420626 419250.541518 0.784830790482 439039.667719
0.960904 0.24025871058 387018.027237 0.467884413834 416977.736951 0.785058761648 440887.97695
0.970903 0.242111991323 373006.396854 0.47013469359 440365.83202 0.782827887461 462539.038377
0.980902 0.243311962433 383201.741002 0.473632858753 426878.14296 0.785724949124 426830.357915
0.990901 0.245907484686 385175.226414 0.47715614935 431810.848847 0.784664516686 443146.258306
1.0009 0.247242015319 387406.238137 0.480776165041 439370.804596 0.783981686188 442260.319978
1.010899 0.248800161223 380704.388221 0.484322481281 431730.399069 0.786738731935 435669.094146
1.020898 0.251824468273 382586.201078 0.486563547632 433144.177814 0.783496431174 440022.576537
1.030897 0.252128595669 385705.825446 0.488925829952 445752.059089 0.785687909049 455931.847803
1.040896 0.256388561993 387608.874251 0.49362970861 441499.177907 0.784123075958 441298.506175
1.050895 0.255956753547 391044.845696 0.496031746032 431780.621105 0.784578328377 437638.343272
1.060894 0.258455367343 376338.8491 0.499880028793 435198.964065 0.785354705453 424908.318036
1.070893 0.261599997907 373292.891751 0.50210633608 425050.847355 0.785465741912 440011.036196
1.080892 0.261796552663 382118.444488 0.506924589898 444796.239973 0.785034109732 433963.849314
1.090891 0.263535166133 375341.644421 0.509188302926 421304.784988 0.785539783662 452957.890065
1.10089 0.266320804715 386949.117204 0.509673605023 418846.52794 0.785724949124 434835.310547
1.110889 0.268008136727 388794.915814 0.513879895991 445674.855198 0.787475981983 422596.918712
1.120888 0.269252205849 399953.847489 0.516942800279 419322.214869 0.78739537484 428528.050512
1.130887 0.271838853927 381318.389597 0.521289461612 429147.588854 0.787073111221 412798.381208
1.140886 0.271519258861 389014.160796 0.521324790558 430631.557441 0.786862542982 443341.116433
1.150885 0.274867239124 384738.174103 0.527570852766 421574.52805 0.78699258653 429335.601666
1.160884 0.275747205991 404145.223502 0.528921423433 439457.810812 0.787073111221 450326.876682
1.170883 0.277490267029 372872.761281 0.530794014767 429767.600085 0.788307818437 448728.320793
1.180882 0.279160397189 381995.943523 0.536345449377 447389.563373 0.786614959843 444290.214672
1.190881 0.281596539742 380316.381435 0.537530370466 416861.283907 0.787736517889 435879.6253
1.20088 0.281798891403 396067.936687 0.540134709597 436923.506427 0.78763724579 434934.059484
1.210879 0.284944934391 400971.669208 0.543705789923 441557.741544 0.788537814331 436423.872757
1.220878 0.286316368134 396707.397007 0.544537741911 457805.986847 0.788991983841 447365.226861
1.230877 0.288289119392 405390.118631 0.546582492963 437355.411542 0.78727759408 457337.255783
1.240876 0.290211738484 400016.02237 0.548549361214 439359.758652 0.788376181579 442730.416352
1.250875 0.29211664802 411096.245809 0.552791597568 447525.132786 0.790695100062 437360.884168
1.260874 0.293338574316 407416.502184 0.55515152861 448153.45098 0.785613839373 461316.559668
1.270873 0.295400030722 408448.446616 0.558440833194 451528.184017 0.787693083267 447753.973075
1.280872 0.297230701554 419721.686851 0.55990414441 458957.670406 0.791508694723 469615.903531
1.290871 0.297506597209 417109.602174 0.564646361983 462950.01628 0.787941345646 465414.776126
1.30087 0.300833308264 411082.949625 0.565767661852 453027.851525 0.79133957964 439906.738979
1.310869 0.301967924967 392900.942557 0.570375820628 414726.161154 0.788301604194 417897.55178
1.320868 0.302543483062 372965.931311 0.569910979905 420827.547458 0.788693292952 423101.226239
1.330867 0.306409160408 382207.58546 0.575973827749 394072.985596 0.789527704527 404507.70621
1.340866 0.307025354154 387535.456832 0.57782092174 437020.929431 0.788749280266 453628.058442
1.350865 0.308845966163 421635.130095 0.579005268948 458583.32732 0.790182769275 464991.164256
1.360864 0.311425581743 402808.50696 0.581547497892 439558.209994 0.791414732977 449834.246915
1.370863 0.311233668013 415346.299834 0.584822681763 450631.203251 0.791076655328 441695.845896
1.380862 0.311401337157 397440.419054 0.588214533605 469270.17777 0.790495087073 450259.680311
1.390861 0.314688065455 399233.572786 0.589445390832 445684.800211 0.7910829134 448462.997534
1.40086 0.316824656562 407619.225327 0.591135334523 442317.21991 0.790807651855 423138.788341
1.410859 0.318356769698 408123.342788 0.5927225525 456158.950193 0.788898618639 440047.967417
1.420858 0.319672655201 403647.383652 0.594491442296 414389.353514 0.791251918786 435043.682729
1.430857 0.321759639114 418035.832463 0.597532192047 449304.667331 0.792952240487 461896.214135
1.440856 0.322392409593 414438.897914 0.598189877431 461333.811426 0.791464843132 422925.882418
1.450855 0.324735421815 421369.965953 0.601073517302 460155.546316 0.792342799189 443806.939986
1.460854 0.325171527981 397671.411072 0.60667831489 462117.587952 0.792989968677 442123.726641
1.470853 0.328030178776 424030.709164 0.607555560956 455597.556419 0.792971104133 447405.31194
1.480852 0.326808065623 424691.47803 0.611022852255 446841.44138 0.792606565953 442777.621188
1.490851 0.330544638401 407250.751767 0.610072293567 444560.988096 0.792016473943 444140.6068
1.50085 0.332199425959 417161.873731 0.61433740639 446616.386034 0.791840871658 446111.907049
1.510849 0.332178459556 419240.06501 0.616587435181 460019.785778 0.793166081046 466958.355321
1.520848 0.33583868996 423339.517101 0.618249488399 462399.8289 0.791496165201 451015.463956
1.530847 0.33707031961 423137.080828 0.621666314389 450647.180866 0.793304509936 454789.363428
1.540846 0.338965815298 422174.109538 0.622184614619 457877.953912 0.789328281632 445918.872887
1.550845 0.339310859644 419949.45753 0.626166234612 458572.296981 0.793909129161 450302.703016
1.560844 0.342828541162 421743.663997 0.626060389785 455004.469439 0.794129792573 456861.023669
1.570843 0.3428720333 424075.725497 0.629687234351 464854.596618 0.794704091931 459452.881012
1.580842 0.34505008402 429968.497915 0.631273278202 459467.980339 0.795083205457 449909.037861
1.590841 0.343907337607 378747.60478 0.634043038841 411573.058736 0.79424963266 407046.814755
1.60084 0.346927093271 372996.445497 0.637291764916 397767.579835 0.794817788022 438808.168731
1.610839 0.348213663904 410667.575279 0.638064367933 454981.765167 0.792914515886 439132.059866
1.620838 0.349410893234 403112.022228 0.640094221869 428194.251751 0.794022597883 444675.518538
1.630837 0.352270205338 426328.393405 0.642487712422 462759.497246 0.794697776436 456512.449783
1.640836 0.353313194481 420448.726816 0.643989644647 461672.003285 0.79610862106 455307.244983
1.650835 0.356261110893 430202.23373 0.646124223843 455018.784166 0.794754619511 445890.903911
1.660834 0.356800074214 425376.310062 0.648247786234 458620.934736 0.795355126064 459791.343965
1.670833 0.358271412091 429355.818455 0.649852808339 466618.087316 0.795646223863 448982.423088
1.680832 0.360768581386 432962.200618 0.652473199663 454293.81603 0.797734434207 462478.856964
1.690831 0.360939163704 427748.831527 0.654600202926 462053.444054 0.797073147403 460681.174399
1.70083 0.361828536693 428082.372837 0.65711657248 469825.267688 0.798339453936 444956.674503
1.710829 0.363406426479 433681.611433 0.65829317745 465016.940734 0.794640941491 462829.965903
1.720828 0.366264142374 423861.447573 0.661082721281 461740.616138 0.798269352045 458274.177565
1.730827 0.367192118588 425148.649334 0.662413968986 469876.321921 0.796102283221 445933.095746
1.740826 0.367035782318 431127.315188 0.664213504789 462058.534189 0.797238366299 453969.783
1.750825 0.3698156469 425158.992262 0.664050308451 463209.742382 0.794937835861 468401.286056
1.760824 0.370708126664 430533.426537 0.66567702682 472569.412756 0.798269352045 456752.068249
1.770823 0.371437910439 439835.236282 0.668927642097 453695.773277 0.798135555343 451063.967075
1.780822 0.373862523273 426126.552648 0.672576371047 465226.867622 0.79703502969 446913.335571
1.790821 0.373701853187 428866.3167 0.672961096119 464480.863424 0.797931760876 451343.062583
1.80082 0.376324662813 436012.840344 0.676622032167 460589.608604 0.800935492655 461637.95855
1.810819 0.377362762597 426277.265437 0.67708015952 471173.230673 0.797893560999 456431.47386
1.820818 0.378889777175 448974.252754 0.679842004718 475488.604518 0.797689890078 469197.209631
1.830817 0.38205123307 451791.307795 0.681886370455 470943.097939 0.798396819187 462699.258455
1.840816 0.382517423669 430275.935223 0.681942171304 479418.612759 0.798320334017 474995.894766
1.850815 0.383787289733 442871.593441 0.682719682126 480584.267449 0.798639118941 458730.281988
1.860814 0.384514819201 445484.091614 0.685824017557 462907.097505 0.79841594277 454929.948686
1.870813 0.386567550747 435363.846037 0.689526777772 469600.655647 0.799891214795 465612.140118
1.880812 0.386005002625 440736.483064 0.689678954447 473097.651377 0.800877762027 459823.100435
1.890811 0.388828188488 449082.894437 0.691156650655 477406.665453 0.800019200461 447136.783663
1.90081 0.390516692636 433299.896383 0.691711224398 461335.333701 0.800384184409 442475.870778
1.910809 0.390382535847 422983.461073 0.692712662787 457912.946075 0.800313722979 450663.643836
1.920808 0.391841852628 435236.446802 0.697048695822 472945.615196 0.79993600512 458402.396547
1.930807 0.39639911048 433226.9453 0.698939010582 461953.700043 0.799948803277 456470.716272
1.940806 0.395071093043 437120.218107 0.69909537059 469690.579881 0.801294892546 462517.616079
1.950805 0.396292289341 446267.119498 0.701680524857 476106.60655 0.80245873356 468977.392545
1.960804 0.397400997477 441253.473015 0.703932872961 473825.576141 0.79985282708 459389.977832
1.970803 0.400469350078 438386.678359 0.703719863197 457766.514525 0.80099964756 455690.613497
1.980802 0.399958404326 438133.4403 0.705815923207 465775.013881 0.801506832846 457936.443815
1.990801 0.404386787875 426268.167678 0.709944908275 462002.548871 0.801134406319 450637.013161
2.0008 0.403766332348 441450.386741 0.710954385167 474926.512883 0.801391215149 439311.43918
2.010799 0.405352271391 431488.341709 0.712971809095 464498.352668 0.801725312873 441582.845002
2.020798 0.404759977333 425350.858601 0.713867591839 467143.503122 0.802059689282 434718.132568
2.030797 0.408558483104 432163.670384 0.716671205584 469058.160562 0.801160079796 438685.169458
2.040796 0.409862941832 444349.521146 0.716686614444 462937.242003 0.80613955888 461303.368018
2.050795 0.408788962698 433048.475406 0.715645440623 446909.526027 0.802381468198 459090.79466
2.060794 0.410691111002 438254.298635 0.71793693642 449856.440343 0.803283824274 448758.567415
2.070793 0.413074638456 432844.243093 0.721375807941 468847.383017 0.804155877575 462536.487999
2.080792 0.414463104494 435506.241908 0.723479066133 461254.666923 0.804718871462 441935.990306
