# energy, two eff, two rate, three-lin eff, three-lin rate, three-inv eff, three-inv rate
0.001 0.347801892042 114842.588891 0.523966214658 120505.996563 0.524350853643 117354.078374
0.001999 0.39161167786 125453.337074 0.593422504955 128582.482412 0.589619164981 128278.142151
0.002998 0.448340021072 135255.974501 0.676855599626 139785.857189 0.670915800067 135316.890866
0.003997 0.498338042628 144736.230954 0.753641974843 147451.720444 0.749889391315 146602.828803
0.004996 0.535389227969 147731.444123 0.810931354661 151888.675191 0.805548618887 152451.569967
0.005995 0.56309476885 154850.790627 0.854240878843 156140.736861 0.848140452059 155886.094697
0.006994 0.582184005077 156354.818447 0.887594972662 160346.083886 0.87806334349 158606.301818
0.007993 0.595997282252 157354.947749 0.908488003416 161662.419835 0.898973372409 157502.138554
0.008992 0.605055846655 158895.615344 0.925154963456 163956.947416 0.912850192155 160725.688649
0.009991 0.612790156139 158782.828923 0.938834905882 165682.505962 0.924094849095 163118.582581
0.01099 0.618295359693 161648.089789 0.947696623357 167285.359604 0.933480200885 160905.424468
0.011989 0.621168168858 161033.735543 0.956480153037 165043.463411 0.939831958046 161897.670641
0.012988 0.625078134767 153980.213839 0.96145525868 154423.200828 0.942995897968 155111.867343
0.013987 0.627478540234 159679.354811 0.966884215615 165386.036421 0.946727635926 160499.724867
0.014986 0.628614533568 161215.710512 0.970440385847 163919.654707 0.947732549874 162452.364897
0.015985 0.628563167456 156590.589715 0.97415565059 164176.690479 0.951474785918 161654.569147
0.016984 0.627982918865 160146.068287 0.97630507581 165968.480937 0.953025379066 160483.758032
0.017983 0.629417725662 162034.893312 0.978942937416 164317.99849 0.953270671675 161129.437797
0.018982 0.630612450812 162388.77717 0.981219459544 166281.150183 0.954918306739 157432.26099
0.019981 0.630107811447 151628.843543 0.982414775518 166747.794946 0.953752539366 163580.188653
0.02098 0.626711706348 163082.684783 0.984174474451 168559.874003 0.954398824181 163532.801078
0.021979 0.630171343588 163771.484664 0.984581454424 166744.215262 0.954453479937 160498.189456
0.022978 0.629239501139 163246.890886 0.985853009316 145528.026514 0.954781545982 159698.749422
0.023977 0.628109140244 148944.079352 0.987332523721 155680.516552 0.954298638216 157648.656907
0.024976 0.62778185836 156012.789592 0.987644566473 164511.541252 0.952244917393 163522.663831
0.025975 0.627687286194 163720.535172 0.988660069008 165410.364649 0.952725748366 161912.107477
0.026974 0.626503608661 163761.573559 0.989276245499 167677.254674 0.951809866461 164160.754725
0.027973 0.62422362187 160155.546578 0.989560140518 163052.887662 0.950651671721 153487.00194
0.028972 0.622870561269 152896.994848 0.990157831158 167155.023653 0.950073630706 153925.004982
0.029971 0.620289675278 156106.333684 0.990216659405 165027.68361 0.949216896061 163263.984256
0.03097 0.618574556791 160185.51759 0.991001704523 168600.799208 0.947633758505 164233.77614
0.031969 0.61880805193 161552.704001 0.990775876589 166049.824797 0.947077319392 165956.660517
0.032968 0.619290911906 162611.142514 0.9910213466 165003.727461 0.945152783948 163316.239716
0.033967 0.620678525764 160594.547303 0.991542145499 168024.869404 0.945295735771 165669.024863
0.034966 0.617867492138 160528.28886 0.991443839664 164295.599398 0.942782528354 161113.902423
0.035965 0.616876507492 159878.266518 0.991955242979 165868.782547 0.941832429174 164756.846105
0.036964 0.615021279736 162166.768352 0.991758486973 164974.522055 0.94167278754 164151.310395
0.037963 0.613425428938 162636.805291 0.991837180009 169015.709988 0.941575255402 162863.518692
0.038962 0.611804149256 154699.153347 0.991955242979 160525.524158 0.939628846606 162588.386976
0.039961 0.612276136538 164192.307948 0.991610971184 166455.563078 0.938500089158 162762.019515
0.04096 0.612129967435 162952.165312 0.991847017516 170887.577243 0.937593759376 166506.841212
0.041959 0.607190348102 161968.504545 0.991994603549 168705.167056 0.935226231225 163798.794366
0.042958 0.607618318477 165537.143701 0.991679806424 168061.831373 0.93385504702 164521.091613
0.043957 0.606542163779 163685.39403 0.991109745582 165108.562624 0.931957763674 167770.884941
0.044956 0.603187241383 164894.617017 0.992014285006 169437.527571 0.931792769288 166029.645663
0.045955 0.606788752564 164957.976914 0.992388381117 168403.741392 0.929454410261 165880.656055
0.046954 0.603799103962 162376.45534 0.991070455199 170925.809557 0.92936802974 163524.576423
0.047953 0.598759370584 165913.399008 0.990550151554 170859.801648 0.927902013547 163424.862546
0.048952 0.599419761671 150194.856002 0.99087405 164624.732661 0.926389120486 159172.816741
0.049951 0.597728631201 153127.644583 0.99103116793 160525.216975 0.924274213674 161772.284793
0.05095 0.598752200414 156178.935171 0.990226464792 143535.648947 0.923130890729 157260.373408
0.051949 0.596776214887 153291.228204 0.989726637503 150439.970947 0.921497617929 154045.192864
0.052948 0.594484373978 155285.986511 0.990049997525 162723.879453 0.921531585495 152142.610482
0.053947 0.593179620721 150250.058301 0.990157831158 167322.263897 0.919455682236 158312.004532
0.054946 0.593549306141 157768.501097 0.989579725491 156705.668381 0.918282077889 161708.667134
0.055945 0.593338000926 160085.250477 0.989246886345 162606.666545 0.91664069518 163759.975106
0.056944 0.589136326146 155885.573267 0.989491599216 162651.878854 0.915927055569 164630.742033
0.057943 0.58874438485 160161.234091 0.989139251024 156038.385488 0.913767738516 150244.245622
0.058942 0.586926792621 152635.204647 0.988620972605 159032.617903 0.913834541118 150764.750349
0.059941 0.587519902237 153402.011783 0.987839693375 169182.669754 0.913625815411 162516.758084
0.06094 0.584641468619 163881.4825 0.987605550343 169903.015661 0.910564367795 161700.313238
0.061939 0.583662129666 160755.626997 0.986962228955 171308.585924 0.909066116379 163652.438963
0.062938 0.585192294188 161881.486948 0.987400766223 169288.647706 0.908001307522 166121.773406
0.063937 0.58207556505 164991.459931 0.986514348851 168621.269264 0.905149394908 163680.858728
0.064936 0.580251713193 163531.525883 0.986397577408 170535.794877 0.905428041106 163819.970449
0.065935 0.57899521171 163200.267701 0.986310016965 165854.549696 0.904625349412 160693.421932
0.066934 0.579915216395 164965.892214 0.985542097431 166840.456157 0.902681867829 161441.832036
0.067933 0.574897668215 161135.689929 0.985085800973 162439.215577 0.900665591872 161972.695252
0.068932 0.576365554089 158936.799728 0.984823864252 168020.090445 0.902527075812 159637.055644
0.069931 0.574940637379 155190.092234 0.983671060397 165276.680457 0.898512961049 160750.020408
0.07093 0.573466836413 157566.92822 0.983390533883 162235.516095 0.896941429725 158130.739081
0.071929 0.572347598143 160102.421479 0.982897582072 165211.448631 0.896531320322 160266.189189
0.072928 0.571912245785 159785.01825 0.982656119491 166765.894592 0.894678452564 162374.820952
0.073927 0.567814029549 158689.352731 0.982897582072 164791.089196 0.894782523108 159480.694881
0.074926 0.566707091773 160316.052765 0.981065437065 161269.267089 0.892657888864 159094.026327
0.075925 0.565812478428 158194.018406 0.980228785399 165385.449501 0.890535389876 162199.943153
0.076924 0.564385046054 163374.955741 0.980248002745 166242.463349 0.888612431688 165599.102339
0.077923 0.563221627711 156365.543767 0.980065468373 168477.203401 0.889663884984 161823.090103
0.078922 0.560029569561 160043.224565 0.97990220576 166736.128393 0.886179149977 161374.438126
0.079921 0.558126036021 164503.734011 0.978808789703 168642.015516 0.884940089556 161570.253505
0.08092 0.560161326462 158096.228167 0.978454433377 167549.654059 0.883407834061 160876.66441
0.081919 0.55795787418 160897.708851 0.977698692817 166194.640473 0.88575528353 163181.410028
0.082918 0.556569749321 161033.426412 0.97752666204 162795.880639 0.882674857889 156272.969791
0.083917 0.553801849698 157029.754495 0.975790634361 162546.674526 0.880467704445 161612.4626
0.084916 0.552211607488 162055.427903 0.975533616888 167241.135945 0.877608691836 158149.222621
0.085915 0.551277033248 158423.105585 0.975238689669 159276.479979 0.879012692943 153870.287284
0.086914 0.549973326294 161185.043081 0.974991468825 163357.584633 0.878279275244 155077.227964
0.087913 0.549308695007 156393.471475 0.972516678661 159644.711591 0.87567207832 160267.16901
0.088912 0.546367475837 158656.15794 0.973018205171 164619.628271 0.873766896467 159545.059464
0.089911 0.54647496325 158256.870695 0.971137785029 167567.057921 0.873927254295 165358.390502
0.09091 0.546875427246 161030.89158 0.971675654666 165945.367022 0.869996433015 158697.938817
0.091909 0.542361114878 159213.359287 0.97077011193 161725.689309 0.870928409685 156384.841389
0.092908 0.540724679215 158492.428322 0.969856849129 166162.642183 0.868417396137 157597.240858
0.093907 0.539645021505 159323.429711 0.967295731324 166062.184474 0.86871916047 158828.525717
0.094906 0.539915989072 155851.629895 0.968429207825 168965.121343 0.86525399531 162468.222411
0.095905 0.536500834259 161662.918317 0.966902913278 166459.13038 0.863945813319 161786.387245
0.096904 0.536391479958 158948.364095 0.965390741903 166246.614566 0.865104288322 161278.878805
0.097903 0.534593548525 159979.555835 0.9660062404 166081.516594 0.86108169082 155603.759298
0.098902 0.531629284267 160256.697797 0.964106321645 166980.605139 0.85972695072 161268.957053
0.099901 0.531002585983 158852.707553 0.962751157708 164149.126147 0.860067085233 160013.550952
0.1009 0.530118693575 159335.11094 0.962918026788 162174.731575 0.858221764504 162282.594229
0.101899 0.527930144283 159420.260109 0.960624021364 163880.970243 0.857522617159 157300.006451
0.102898 0.527200932091 158459.555318 0.960670163506 169027.425271 0.857206535343 157268.038956
0.103897 0.523549245042 157684.158289 0.959481112614 162303.945318 0.856501704438 160547.705892
0.104896 0.524111761592 155650.763409 0.958625714176 166913.423817 0.854854290086 160267.965123
0.105895 0.526229930906 159322.945552 0.956763841981 161202.203014 0.854941992186 160485.047543
0.106894 0.522329589971 159224.238596 0.957203434446 166351.452059 0.849920957351 160148.391893
0.107893 0.518626469658 161048.513404 0.953470633105 165661.630823 0.848932467422 161981.32754
0.108892 0.518338827725 161562.847399 0.95379802373 166340.368643 0.848298736883 162048.791155
0.109891 0.516129032258 159188.765443 0.951601545401 165592.825936 0.846338738617 161272.367517
0.11089 0.515323133371 158693.91585 0.951972963968 168108.781023 0.845894872185 161393.687786
0.111889 0.511127240015 163204.776409 0.950227104278 165930.792806 0.845758941786 155206.746009
0.112888 0.511318024472 157010.238617 0.94948727687 164784.873892 0.843518823123 159492.217237
0.113887 0.510798275545 159419.472396 0.947202909807 167120.656831 0.843298308344 157234.964512
0.114886 0.510446283185 157971.185342 0.947202909807 165863.075995 0.841779184484 159328.029368
0.115885 0.507913289043 160271.088412 0.94524212377 164800.34828 0.840915588893 157495.218973
0.116884 0.50615484289 161103.196518 0.942746976139 165906.245637 0.837913929481 161264.802682
0.117883 0.507189409885 161949.054999 0.943449629224 165812.717949 0.837401709974 162467.97068
0.118882 0.503844332255 160242.554648 0.940026320737 166983.663143 0.838293234974 157626.498875
0.119881 0.501849314725 157247.992178 0.940176565159 163607.753681 0.835903737326 156948.431172
0.12088 0.500851447461 155126.553603 0.937154424306 158176.777078 0.836414125362 154362.447229
0.121879 0.499475550672 156667.563126 0.93774322715 163732.103102 0.833395838021 160572.905879
0.122878 0.496753714476 159049.563821 0.935374945047 168800.288799 0.833937938339 157343.082846
0.123877 0.495889079531 157365.574555 0.933288535484 164366.615226 0.830902942227 157107.454609
0.124876 0.496307472405 157600.201702 0.933175315647 164490.444049 0.830896038288 162480.872886
0.125875 0.493568798555 159421.774965 0.930137381291 166782.340168 0.830757983584 164115.534597
0.126874 0.490431677963 159394.511967 0.929083087901 161396.047738 0.827609037491 154359.777214
0.127873 0.490047142535 160484.310677 0.927385699713 166132.827709 0.827075131505 156458.052399
0.128872 0.486840695987 154964.985772 0.926990248063 165563.738406 0.824545057265 143544.933255
0.129871 0.48338602241 145834.660377 0.92364247647 160057.332548 0.825375339436 152518.75892
0.13087 0.485691527597 155679.129745 0.921956391463 167135.507425 0.824320759694 155633.783219
0.131869 0.48250439079 160922.277948 0.921234454169 167324.199653 0.822016900667 160971.500438
0.132868 0.480970405891 160746.632 0.917700609353 158196.285712 0.822578124357 163829.440681
0.133867 0.478695650093 160671.446111 0.916531478274 168678.978187 0.820250340404 162460.041561
0.134866 0.478114317133 160020.205188 0.915675447994 168188.190308 0.820176337913 161232.629058
0.135865 0.475411706538 162369.792272 0.914268996224 167149.494702 0.818203388998 161536.775838
0.136864 0.474849591392 162527.085884 0.911136825417 167477.801017 0.814936149753 158808.259551
0.137863 0.473742805031 161705.799281 0.910092010302 162700.587449 0.815294932942 159785.748708
0.138862 0.47154241524 161755.003282 0.908364217717 167277.220161 0.817053541519 156040.997786
0.139861 0.470278404816 157868.678888 0.904240889773 155868.136344 0.812829704049 158547.18705
0.14086 0.470075023974 160426.05828 0.901518156576 166745.010734 0.811023430467 161938.550435
0.141859 0.46651147385 159145.15574 0.902152535951 162262.315896 0.812638148485 162591.853475
0.142858 0.464688333535 158790.403152 0.899693204617 168927.761028 0.810780132644 161114.149975
0.143857 0.461207811015 161250.79101 0.896788600023 167940.167343 0.80872124996 162020.434573
0.144856 0.46141636367 157774.732519 0.894518391298 164198.478632 0.808172237667 158632.695861
0.145855 0.458982985501 160076.574716 0.892833227681 165998.827723 0.808427043501 159055.836536
0.146854 0.456452179787 159282.831095 0.88941858707 166443.607128 0.805075194023 161508.349384
0.147853 0.454074867864 161485.652728 0.889481876807 167897.34426 0.805165944701 160488.363524
0.148852 0.455201358321 158821.910079 0.885472931092 165824.255634 0.802503811893 159737.30944
0.149851 0.452216539368 160732.402246 0.882534639485 166033.851983 0.803684087859 162195.489792
0.15085 0.450598620267 153797.390841 0.882114251438 163175.252069 0.801988932553 158949.62905
0.151849 0.448064808094 156896.707802 0.878047923856 167959.40114 0.802735723345 157345.97512
0.152848 0.446476408187 158551.682061 0.8751586225 166798.987985 0.802548895291 161279.126864
0.153847 0.445688410319 161029.531459 0.873690556279 170048.9798 0.799667338387 163582.868179
0.154846 0.440961825935 161081.479661 0.871923201004 169726.595695 0.799226348894 163692.612706
0.155845 0.441251742944 158060.004937 0.869398897602 165795.08675 0.797225654722 163930.097518
0.156844 0.43871771586 157966.12825 0.865733406055 165172.932662 0.796717523802 161273.979787
0.157843 0.434612542918 163294.685054 0.862277101369 167952.94455 0.796850845459 164878.800851
0.158842 0.434824200576 158920.841257 0.859571761348 165437.505917 0.79579818558 161906.607426
0.159841 0.432561499431 158517.047095 0.85841330884 165665.491346 0.794843058238 163344.479209
0.16084 0.431497598716 159805.960704 0.853402515831 167859.58127 0.793619300821 162420.973634
0.161839 0.427458205274 159333.59773 0.851977439637 168876.953027 0.79024521309 162779.769579
0.162838 0.427076660261 159577.959445 0.84712021483 166663.911653 0.792681960144 162257.043105
0.163837 0.42484673654 158799.481156 0.847098686997 170129.059945 0.790870194475 162621.167058
0.164836 0.424181753398 162027.8201 0.841665825001 168936.061892 0.788693292952 161494.792806
0.165835 0.421926686019 159361.748126 0.83979979173 167744.716964 0.78841969157 163586.313412
0.166834 0.419134319976 159369.862129 0.836547068321 168433.76784 0.78814627995 163969.061586
0.167833 0.416503536115 157861.964723 0.833166699993 170083.940925 0.786825395576 163699.576457
0.168832 0.414366930204 161053.460575 0.827698088845 167980.321214 0.785311533085 163294.367181
0.169831 0.412364332135 162140.752249 0.825463910718 167531.11623 0.785237534354 163933.365174
0.17083 0.411255233223 160897.153355 0.822050687645 166526.21089 0.783453462864 163527.190371
0.171829 0.408952794579 160452.877365 0.818310516108 167066.803954 0.783834203389 161683.545709
0.172828 0.40639007758 159435.228146 0.814040571782 167165.34978 0.783674492963 160679.755588
0.173827 0.405460745318 156401.460984 0.811003698177 167080.44695 0.784319877019 163479.897211
0.174826 0.402226727162 160815.35219 0.806705334742 167715.136853 0.781842490012 163125.751349
0.175825 0.399747359669 160162.212629 0.803322542034 162404.370738 0.782784992446 159304.670699
0.176824 0.397862681674 158911.267712 0.799226348894 169258.862142 0.779648066863 164125.488594
0.177823 0.396027056569 160162.457265 0.795102170629 166430.332091 0.778506979315 162688.092048
0.178822 0.393893081662 157395.573505 0.791947478043 167777.864447 0.778713098733 160957.786757
0.179821 0.390591433549 158291.929697 0.789789600051 162375.072394 0.776403543506 162915.264955
0.18082 0.389368677626 155814.459752 0.784590639834 164544.907814 0.775945683802 162305.515472
0.181819 0.385077477588 158533.164254 0.779939944624 166849.41599 0.776367377043 163709.032774
0.182818 0.383846215852 160101.443671 0.775043596202 166012.888221 0.775692887672 159412.565087
0.183817 0.380320686403 159771.201671 0.772899067111 162727.856804 0.776463828433 164512.121986
0.184816 0.377606428372 157692.635942 0.767047633658 166783.401284 0.774797390482 160407.590852
0.185815 0.375561464389 153880.222798 0.76432731553 163065.375768 0.771610892059 161936.487198
0.186814 0.375297892702 158832.495364 0.758339842417 163927.470674 0.773096250483 162160.498648
0.187813 0.372091638729 159497.008602 0.754859407435 166399.035162 0.773365299099 162980.849001
0.188812 0.368278005701 159166.232792 0.750052503675 167494.654856 0.771569217474 162172.097981
0.189811 0.365720304426 154973.173553 0.744014404119 164696.938759 0.770315135922 160889.129954
0.19081 0.362174495672 154038.347407 0.739530102573 165912.348933 0.772534841321 159131.026973
0.191809 0.360100828232 159489.6094 0.735450941745 166208.470708 0.770641636226 158652.55717
0.192808 0.359343838152 155269.373207 0.728061681386 161439.28433 0.770332937896 159899.721092
0.193807 0.354822570973 154414.673117 0.723740871818 160670.707532 0.769852573232 157585.753838
0.194806 0.354154049929 156144.108258 0.718772910887 164271.597956 0.767548067698 160922.030985
0.195805 0.349926865285 152694.828338 0.713984820683 162063.505434 0.768698593282 159170.038127
0.196804 0.346738233438 156863.965341 0.708923216526 165260.27 0.766383360284 159664.584021
0.197803 0.34480975122 156521.6937 0.699745992205 167603.282932 0.766154364781 159822.52374
0.198802 0.341545218879 157678.230403 0.695444145403 164466.64361 0.767218296622 156530.046814
0.199801 0.339519376371 153528.015002 0.689503006233 165714.908836 0.767088821215 159559.140452
0.2008 0.336058769958 153932.122836 0.686596267663 163288.709252 0.7653920338 156834.461894
0.201799 0.331728871359 153944.665419 0.679227853776 165643.312152 0.76301513059 160403.664771
0.202798 0.32764862961 157368.054349 0.671708961941 163405.634631 0.765943105746 158669.242112
0.203797 0.328302642508 156123.41715 0.669630899448 161304.122764 0.764648758593 159653.644456
0.204796 0.328163661781 155631.87751 0.670704306592 165290.944573 0.764134579382 162205.964988
0.205795 0.327303315255 156788.264086 0.671415814528 163708.202108 0.762846332235 159029.542696
0.206794 0.327936590181 152765.514647 0.671185985637 160646.95354 0.764082031847 154632.880442
0.207793 0.327948420272 151379.623845 0.672802626621 162770.16764 0.763912761163 154757.831142
0.208792 0.328329590376 153953.932423 0.673849906672 166303.566465 0.763428711027 160619.577472
