Range (g/cm2)	Dose (MeV-cm2/g)
0.0025	2.11
0.0094	2.58
0.0180	3.07
0.0255	3.40
0.0335	3.81
0.0405	3.90
0.0475	4.05
0.0566	4.08
0.0653	3.91
0.0721	3.87
0.0807	3.66
0.0992	3.07
0.1111	2.62
0.1259	2.10
0.1439	1.34
0.1596	0.81
0.1825	0.30
0.2125	0.04